freq,psd_x,psd_y,psd_z,psd_xyz
0.0,4.862e+02,1.565e+01,9.512e+00,5.113e+02
1.5,2.798e+02,3.222e+01,1.642e+01,3.284e+02
2.9,2.488e+01,3.179e+01,1.667e+01,7.334e+01
4.4,4.614e+02,3.435e+01,2.168e+01,5.174e+02
5.9,1.923e+03,4.336e+01,3.308e+01,2.000e+03
7.3,3.261e+03,6.665e+01,4.977e+01,3.378e+03
8.8,4.703e+03,2.130e+02,8.999e+01,5.006e+03
10.3,6.314e+03,3.510e+02,1.198e+02,6.785e+03
11.7,7.935e+03,3.146e+02,1.176e+02,8.368e+03
13.2,9.587e+03,3.404e+02,1.312e+02,1.006e+04
14.6,1.164e+04,3.763e+02,1.431e+02,1.215e+04
16.1,1.397e+04,4.058e+02,1.788e+02,1.456e+04
17.6,1.680e+04,4.573e+02,2.202e+02,1.748e+04
19.0,2.075e+04,5.901e+02,2.612e+02,2.160e+04
20.5,2.630e+04,1.046e+03,3.705e+02,2.772e+04
22.0,3.188e+04,1.293e+03,4.380e+02,3.361e+04
23.4,3.557e+04,1.173e+03,4.152e+02,3.716e+04
24.9,3.882e+04,1.409e+03,4.243e+02,4.065e+04
26.4,4.247e+04,2.340e+03,4.633e+02,4.528e+04
27.8,4.617e+04,2.416e+03,4.734e+02,4.906e+04
29.3,5.211e+04,1.954e+03,4.883e+02,5.455e+04
30.8,6.299e+04,1.799e+03,5.100e+02,6.530e+04
32.2,7.696e+04,1.809e+03,5.732e+02,7.934e+04
33.7,8.794e+04,1.704e+03,6.387e+02,9.028e+04
35.2,9.710e+04,1.879e+03,7.051e+02,9.968e+04
36.6,1.079e+05,1.978e+03,7.516e+02,1.106e+05
38.1,1.227e+05,2.952e+03,9.289e+02,1.266e+05
39.5,1.396e+05,3.605e+03,1.125e+03,1.443e+05
41.0,1.534e+05,3.668e+03,1.214e+03,1.583e+05
42.5,1.673e+05,4.907e+03,1.355e+03,1.736e+05
43.9,1.909e+05,8.021e+03,1.458e+03,2.003e+05
45.4,2.168e+05,8.973e+03,1.597e+03,2.273e+05
46.9,2.485e+05,9.932e+03,1.725e+03,2.601e+05
48.3,2.928e+05,1.175e+04,1.806e+03,3.064e+05
49.8,3.497e+05,1.234e+04,1.845e+03,3.638e+05
51.3,4.209e+05,1.286e+04,2.051e+03,4.358e+05
52.7,5.131e+05,1.484e+04,2.814e+03,5.307e+05
54.2,6.215e+05,1.342e+04,4.716e+03,6.397e+05
55.7,7.808e+05,1.438e+04,7.649e+03,8.028e+05
57.1,1.060e+06,1.651e+04,1.079e+04,1.088e+06
58.6,1.510e+06,1.734e+04,1.578e+04,1.543e+06
60.1,2.012e+06,2.156e+04,2.356e+04,2.057e+06
61.5,2.206e+06,2.481e+04,2.914e+04,2.260e+06
63.0,1.954e+06,2.597e+04,2.851e+04,2.008e+06
64.4,1.561e+06,2.368e+04,2.394e+04,1.608e+06
65.9,1.247e+06,2.005e+04,1.999e+04,1.287e+06
67.4,9.689e+05,1.732e+04,1.519e+04,1.001e+06
68.8,7.288e+05,1.310e+04,1.007e+04,7.520e+05
70.3,5.141e+05,9.131e+03,6.343e+03,5.296e+05
71.8,3.702e+05,7.678e+03,4.130e+03,3.820e+05
73.2,2.766e+05,6.052e+03,2.597e+03,2.853e+05
74.7,2.238e+05,4.965e+03,2.094e+03,2.308e+05
76.2,1.794e+05,4.772e+03,2.267e+03,1.865e+05
77.6,1.317e+05,4.949e+03,3.056e+03,1.397e+05
79.1,8.665e+04,6.399e+03,4.814e+03,9.786e+04
80.6,5.423e+04,7.329e+03,6.388e+03,6.794e+04
82.0,3.332e+04,6.521e+03,6.746e+03,4.659e+04
83.5,2.100e+04,4.787e+03,6.177e+03,3.197e+04
85.0,1.372e+04,3.240e+03,5.793e+03,2.275e+04
86.4,1.030e+04,2.346e+03,5.710e+03,1.836e+04
87.9,9.265e+03,1.812e+03,5.345e+03,1.642e+04
89.3,9.469e+03,1.430e+03,4.515e+03,1.541e+04
90.8,9.626e+03,1.112e+03,3.770e+03,1.451e+04
92.3,9.588e+03,8.342e+02,2.930e+03,1.335e+04
93.7,1.100e+04,6.591e+02,2.480e+03,1.414e+04
95.2,1.271e+04,5.533e+02,2.168e+03,1.543e+04
96.7,1.468e+04,5.056e+02,1.771e+03,1.696e+04
98.1,1.606e+04,4.493e+02,1.348e+03,1.786e+04
99.6,1.706e+04,3.869e+02,1.043e+03,1.849e+04
101.1,1.809e+04,3.351e+02,9.247e+02,1.935e+04
102.5,1.935e+04,2.552e+02,9.597e+02,2.057e+04
104.0,2.071e+04,2.094e+02,1.104e+03,2.202e+04
105.5,2.292e+04,2.558e+02,1.157e+03,2.433e+04
106.9,2.157e+04,2.825e+02,1.326e+03,2.318e+04
108.4,2.341e+04,3.331e+02,1.509e+03,2.526e+04
109.9,2.385e+04,3.904e+02,1.543e+03,2.578e+04
111.3,2.448e+04,4.138e+02,1.576e+03,2.647e+04
112.8,2.521e+04,4.758e+02,1.780e+03,2.747e+04
114.2,2.466e+04,6.388e+02,2.539e+03,2.784e+04
115.7,2.282e+04,8.241e+02,3.506e+03,2.715e+04
117.2,2.181e+04,9.772e+02,4.610e+03,2.740e+04
118.6,2.220e+04,1.344e+03,7.635e+03,3.118e+04
120.1,2.298e+04,1.869e+03,1.103e+04,3.587e+04
121.6,2.510e+04,1.387e+03,6.507e+03,3.300e+04
123.0,2.811e+04,9.720e+02,3.177e+03,3.226e+04
124.5,3.682e+04,6.507e+02,2.657e+03,4.012e+04
126.0,5.058e+04,6.070e+02,5.139e+03,5.632e+04
127.4,6.448e+04,9.369e+02,9.661e+03,7.508e+04
128.9,7.444e+04,1.196e+03,1.171e+04,8.735e+04
130.4,8.453e+04,1.117e+03,1.242e+04,9.807e+04
131.8,9.321e+04,9.345e+02,1.422e+04,1.084e+05
133.3,8.570e+04,6.832e+02,1.332e+04,9.970e+04
134.8,3.175e+04,2.363e+02,4.898e+03,3.688e+04
136.2,6.085e+03,7.949e+01,1.032e+03,7.196e+03
137.7,5.015e+03,9.489e+01,1.010e+03,6.119e+03
139.1,4.451e+03,1.053e+02,9.695e+02,5.526e+03
140.6,4.235e+03,1.015e+02,1.028e+03,5.365e+03
142.1,4.329e+03,1.028e+02,1.280e+03,5.711e+03
143.5,4.864e+03,1.133e+02,1.567e+03,6.545e+03
145.0,5.668e+03,1.112e+02,1.892e+03,7.671e+03
146.5,6.631e+03,1.013e+02,2.253e+03,8.985e+03
147.9,7.578e+03,1.057e+02,2.612e+03,1.030e+04
149.4,8.463e+03,1.085e+02,2.894e+03,1.146e+04
150.9,9.865e+03,1.165e+02,3.037e+03,1.302e+04
152.3,1.191e+04,1.259e+02,3.087e+03,1.512e+04
153.8,1.483e+04,1.347e+02,3.053e+03,1.802e+04
155.3,1.883e+04,1.478e+02,2.910e+03,2.188e+04
156.7,2.235e+04,1.503e+02,2.619e+03,2.512e+04
158.2,2.596e+04,1.551e+02,2.367e+03,2.848e+04
159.7,2.966e+04,1.637e+02,2.153e+03,3.197e+04
161.1,3.363e+04,1.800e+02,1.891e+03,3.570e+04
162.6,3.802e+04,1.971e+02,1.601e+03,3.982e+04
164.0,4.141e+04,2.075e+02,1.268e+03,4.288e+04
165.5,4.043e+04,1.926e+02,8.508e+02,4.147e+04
167.0,3.672e+04,1.748e+02,5.752e+02,3.747e+04
168.4,3.387e+04,1.674e+02,5.776e+02,3.462e+04
169.9,3.150e+04,1.589e+02,6.573e+02,3.231e+04
171.4,3.058e+04,1.445e+02,7.250e+02,3.145e+04
172.8,3.104e+04,1.367e+02,7.650e+02,3.194e+04
174.3,3.036e+04,1.149e+02,8.123e+02,3.128e+04
175.8,2.822e+04,9.898e+01,8.549e+02,2.917e+04
177.2,2.568e+04,1.084e+02,8.594e+02,2.665e+04
178.7,2.241e+04,1.021e+02,9.212e+02,2.344e+04
180.2,1.720e+04,1.060e+02,9.420e+02,1.824e+04
181.6,1.246e+04,1.115e+02,8.424e+02,1.342e+04
183.1,8.902e+03,9.941e+01,6.909e+02,9.692e+03
184.6,6.539e+03,9.645e+01,5.866e+02,7.222e+03
186.0,4.709e+03,9.413e+01,5.168e+02,5.320e+03
187.5,3.179e+03,8.999e+01,4.751e+02,3.744e+03
188.9,2.259e+03,8.690e+01,4.660e+02,2.811e+03
190.4,1.816e+03,8.992e+01,4.774e+02,2.384e+03
191.9,1.409e+03,9.539e+01,4.643e+02,1.968e+03
193.3,1.273e+03,1.028e+02,4.496e+02,1.826e+03
194.8,1.066e+03,1.081e+02,5.576e+02,1.732e+03
196.3,9.319e+02,1.114e+02,7.539e+02,1.797e+03
197.7,8.367e+02,1.198e+02,9.241e+02,1.881e+03
199.2,7.807e+02,1.182e+02,1.130e+03,2.029e+03
